"Rtot_PMMApaint_CaCO3_15vv - RawData"
"Wavelength nm.","R%"
220.00,11.396
221.00,11.404
222.00,11.431
223.00,11.470
224.00,11.496
225.00,11.503
226.00,11.440
227.00,11.419
228.00,11.439
229.00,11.504
230.00,11.575
231.00,11.524
232.00,11.589
233.00,11.549
234.00,11.622
235.00,11.635
236.00,11.649
237.00,11.664
238.00,11.730
239.00,11.832
240.00,12.015
241.00,12.087
242.00,12.233
243.00,12.318
244.00,12.448
245.00,12.557
246.00,12.743
247.00,12.920
248.00,13.108
249.00,13.219
250.00,13.331
251.00,13.460
252.00,13.593
253.00,13.724
254.00,13.835
255.00,13.889
256.00,13.977
257.00,14.038
258.00,14.119
259.00,14.193
260.00,14.273
261.00,14.387
262.00,14.475
263.00,14.542
264.00,14.518
265.00,14.515
266.00,14.544
267.00,14.592
268.00,14.554
269.00,14.494
270.00,14.463
271.00,14.501
272.00,14.495
273.00,14.464
274.00,14.418
275.00,14.406
276.00,14.343
277.00,14.363
278.00,14.339
279.00,14.403
280.00,14.336
281.00,14.329
282.00,14.262
283.00,14.253
284.00,14.246
285.00,14.264
286.00,14.275
287.00,14.235
288.00,14.254
289.00,14.248
290.00,14.329
291.00,14.417
292.00,14.547
293.00,14.653
294.00,14.678
295.00,14.713
296.00,14.775
297.00,14.837
298.00,14.916
299.00,14.931
300.00,14.976
301.00,15.038
302.00,15.083
303.00,15.189
304.00,15.202
305.00,14.965
306.00,14.660
307.00,14.444
308.00,14.497
309.00,14.636
310.00,14.790
311.00,14.999
312.00,15.234
313.00,15.490
314.00,15.894
315.00,16.295
316.00,16.885
317.00,17.516
318.00,18.386
319.00,19.346
320.00,20.406
321.00,21.636
322.00,22.977
323.00,24.452
324.00,26.080
325.00,27.833
326.00,29.808
327.00,31.872
328.00,34.001
329.00,36.248
330.00,38.513
331.00,40.726
332.00,42.973
333.00,45.147
334.00,47.398
335.00,49.588
336.00,51.798
337.00,53.860
338.00,55.865
339.00,57.718
340.00,59.682
341.00,61.427
342.00,63.294
343.00,64.845
344.00,66.386
345.00,67.664
346.00,69.059
347.00,70.378
348.00,71.625
349.00,72.763
350.00,73.775
351.00,74.766
352.00,75.701
353.00,76.540
354.00,77.392
355.00,78.071
356.00,78.835
357.00,79.321
358.00,79.914
359.00,80.423
360.00,80.992
361.00,81.498
362.00,81.887
363.00,82.234
364.00,82.571
365.00,82.844
366.00,83.074
367.00,83.255
368.00,83.479
369.00,83.734
370.00,83.919
371.00,83.927
372.00,83.856
373.00,83.623
374.00,83.445
375.00,83.280
376.00,83.119
377.00,83.033
378.00,82.882
379.00,82.921
380.00,82.963
381.00,83.147
382.00,83.373
383.00,83.745
384.00,84.093
385.00,84.535
386.00,84.876
387.00,85.281
388.00,85.468
389.00,85.704
390.00,85.900
391.00,86.258
392.00,86.556
393.00,86.800
394.00,87.038
395.00,87.165
396.00,87.329
397.00,87.339
398.00,87.468
399.00,87.545
400.00,87.615
401.00,87.698
402.00,87.718
403.00,87.862
404.00,87.876
405.00,87.973
406.00,87.872
407.00,87.880
408.00,87.859
409.00,87.918
410.00,87.904
411.00,87.879
412.00,87.778
413.00,87.758
414.00,87.822
415.00,87.883
416.00,87.927
417.00,87.864
418.00,87.916
419.00,87.880
420.00,87.890
421.00,87.830
422.00,87.858
423.00,87.838
424.00,87.835
425.00,87.888
426.00,87.905
427.00,88.001
428.00,87.924
429.00,87.965
430.00,87.927
431.00,87.909
432.00,87.877
433.00,87.803
434.00,87.810
435.00,87.823
436.00,87.889
437.00,87.911
438.00,87.869
439.00,87.849
440.00,87.883
441.00,87.933
442.00,87.977
443.00,88.056
444.00,88.107
445.00,88.103
446.00,88.093
447.00,88.061
448.00,88.088
449.00,88.084
450.00,88.149
451.00,88.202
452.00,88.254
453.00,88.292
454.00,88.388
455.00,88.431
456.00,88.479
457.00,88.481
458.00,88.460
459.00,88.446
460.00,88.491
461.00,88.605
462.00,88.677
463.00,88.704
464.00,88.675
465.00,88.666
466.00,88.610
467.00,88.655
468.00,88.656
469.00,88.698
470.00,88.641
471.00,88.659
472.00,88.746
473.00,88.722
474.00,88.740
475.00,88.716
476.00,88.733
477.00,88.755
478.00,88.671
479.00,88.704
480.00,88.612
481.00,88.582
482.00,88.606
483.00,88.618
484.00,88.689
485.00,88.655
486.00,88.680
487.00,88.668
488.00,88.612
489.00,88.605
490.00,88.581
491.00,88.661
492.00,88.675
493.00,88.655
494.00,88.655
495.00,88.575
496.00,88.547
497.00,88.622
498.00,88.686
499.00,88.701
500.00,88.600
501.00,88.617
502.00,88.640
503.00,88.656
504.00,88.693
505.00,88.751
506.00,88.812
507.00,88.802
508.00,88.758
509.00,88.679
510.00,88.611
511.00,88.612
512.00,88.542
513.00,88.503
514.00,88.446
515.00,88.414
516.00,88.489
517.00,88.498
518.00,88.525
519.00,88.518
520.00,88.509
521.00,88.552
522.00,88.540
523.00,88.595
524.00,88.587
525.00,88.533
526.00,88.534
527.00,88.468
528.00,88.460
529.00,88.398
530.00,88.413
531.00,88.409
532.00,88.339
533.00,88.317
534.00,88.305
535.00,88.316
536.00,88.317
537.00,88.299
538.00,88.385
539.00,88.343
540.00,88.310
541.00,88.241
542.00,88.276
543.00,88.245
544.00,88.134
545.00,88.190
546.00,88.128
547.00,88.124
548.00,88.084
549.00,88.124
550.00,88.139
551.00,87.985
552.00,87.989
553.00,87.974
554.00,88.041
555.00,88.023
556.00,88.015
557.00,88.045
558.00,88.029
559.00,88.003
560.00,87.967
561.00,87.916
562.00,87.899
563.00,87.852
564.00,87.859
565.00,87.846
566.00,87.790
567.00,87.756
568.00,87.739
569.00,87.719
570.00,87.701
571.00,87.627
572.00,87.627
573.00,87.599
574.00,87.631
575.00,87.589
576.00,87.558
577.00,87.530
578.00,87.475
579.00,87.422
580.00,87.346
581.00,87.312
582.00,87.361
583.00,87.327
584.00,87.345
585.00,87.219
586.00,87.191
587.00,87.193
588.00,87.171
589.00,87.145
590.00,87.096
591.00,87.115
592.00,87.150
593.00,87.099
594.00,87.045
595.00,86.963
596.00,86.943
597.00,86.982
598.00,87.002
599.00,87.024
600.00,86.939
601.00,86.937
602.00,86.874
603.00,86.863
604.00,86.764
605.00,86.680
606.00,86.689
607.00,86.658
608.00,86.661
609.00,86.614
610.00,86.606
611.00,86.584
612.00,86.491
613.00,86.458
614.00,86.397
615.00,86.382
616.00,86.386
617.00,86.293
618.00,86.282
619.00,86.162
620.00,86.233
621.00,86.211
622.00,86.236
623.00,86.166
624.00,86.193
625.00,86.107
626.00,86.089
627.00,85.994
628.00,86.001
629.00,85.963
630.00,85.923
631.00,85.905
632.00,85.922
633.00,85.813
634.00,85.748
635.00,85.652
636.00,85.699
637.00,85.661
638.00,85.647
639.00,85.634
640.00,85.574
641.00,85.521
642.00,85.430
643.00,85.392
644.00,85.406
645.00,85.434
646.00,85.457
647.00,85.355
648.00,85.262
649.00,85.201
650.00,85.160
651.00,85.132
652.00,85.118
653.00,85.129
654.00,85.044
655.00,84.985
656.00,84.987
657.00,84.996
658.00,85.033
659.00,84.938
660.00,84.897
661.00,84.721
662.00,84.625
663.00,84.615
664.00,84.652
665.00,84.639
666.00,84.673
667.00,84.624
668.00,84.671
669.00,84.630
670.00,84.630
671.00,84.540
672.00,84.448
673.00,84.445
674.00,84.470
675.00,84.481
676.00,84.484
677.00,84.504
678.00,84.364
679.00,84.264
680.00,84.148
681.00,84.159
682.00,84.096
683.00,83.998
684.00,83.959
685.00,83.886
686.00,83.850
687.00,83.747
688.00,83.775
689.00,83.828
690.00,83.909
691.00,83.889
692.00,83.780
693.00,83.646
694.00,83.529
695.00,83.472
696.00,83.472
697.00,83.462
698.00,83.456
699.00,83.443
700.00,83.428
701.00,83.385
702.00,83.339
703.00,83.217
704.00,83.106
705.00,83.072
706.00,83.097
707.00,83.129
708.00,83.071
709.00,83.037
710.00,82.974
711.00,82.907
712.00,82.913
713.00,82.919
714.00,82.902
715.00,82.723
716.00,82.643
717.00,82.619
718.00,82.699
719.00,82.750
720.00,82.745
721.00,82.715
722.00,82.617
723.00,82.596
724.00,82.546
725.00,82.420
726.00,82.299
727.00,82.213
728.00,82.242
729.00,82.241
730.00,82.195
731.00,82.195
732.00,82.246
733.00,82.206
734.00,82.117
735.00,81.883
736.00,81.864
737.00,81.817
738.00,81.856
739.00,81.777
740.00,81.813
741.00,81.703
742.00,81.805
743.00,81.689
744.00,81.743
745.00,81.478
746.00,81.460
747.00,81.411
748.00,81.392
749.00,81.331
750.00,81.234
751.00,81.206
752.00,81.076
753.00,80.924
754.00,81.018
755.00,81.178
756.00,81.266
757.00,81.172
758.00,81.039
759.00,81.011
760.00,80.933
761.00,80.779
762.00,80.766
763.00,80.829
764.00,80.975
765.00,80.963
766.00,80.831
767.00,80.539
768.00,80.393
769.00,80.319
770.00,80.367
771.00,80.479
772.00,80.368
773.00,80.269
774.00,80.247
775.00,80.180
776.00,80.253
777.00,80.055
778.00,80.086
779.00,80.059
780.00,80.059
781.00,80.025
782.00,79.884
783.00,79.818
784.00,79.819
785.00,79.822
786.00,79.727
787.00,79.636
788.00,79.673
789.00,79.671
790.00,79.733
791.00,79.673
792.00,79.621
793.00,79.646
794.00,79.382
795.00,79.284
796.00,79.006
797.00,79.259
798.00,79.307
799.00,79.431
800.00,79.488
801.00,79.616
802.00,79.543
803.00,79.249
804.00,79.040
805.00,78.855
806.00,79.029
807.00,79.012
808.00,79.145
809.00,79.030
810.00,79.127
811.00,79.174
812.00,79.038
813.00,78.752
814.00,78.673
815.00,78.698
816.00,78.852
817.00,78.725
818.00,78.781
819.00,78.658
820.00,78.693
821.00,78.582
822.00,78.485
823.00,78.433
824.00,78.472
825.00,78.543
826.00,78.478
827.00,78.416
828.00,78.163
829.00,78.270
830.00,78.276
831.00,78.451
832.00,78.444
833.00,78.369
834.00,78.461
835.00,78.345
836.00,78.317
837.00,78.267
838.00,78.287
839.00,78.260
840.00,78.189
841.00,78.107
842.00,78.003
843.00,77.994
844.00,78.079
845.00,78.204
846.00,78.084
847.00,77.975
848.00,77.876
849.00,77.873
850.00,77.830
851.00,77.873
852.00,77.869
853.00,77.764
854.00,77.649
855.00,77.621
856.00,77.671
857.00,77.674
858.00,77.665
859.00,77.597
860.00,77.608
861.00,77.555
862.00,77.527
863.00,77.463
864.00,77.552
865.00,77.527
866.00,77.468
867.00,77.339
868.00,77.349
869.00,77.396
870.00,77.342
871.00,77.300
872.00,77.215
873.00,77.192
874.00,77.178
875.00,77.108
876.00,77.042
877.00,76.979
878.00,77.059
879.00,77.110
880.00,77.208
881.00,77.121
882.00,77.114
883.00,76.972
884.00,77.017
885.00,77.025
886.00,77.049
887.00,76.981
888.00,76.971
889.00,76.978
890.00,76.962
891.00,76.868
892.00,76.874
893.00,76.859
894.00,76.831
895.00,76.759
896.00,76.734
897.00,76.732
898.00,76.745
899.00,76.717
900.00,76.703
901.00,76.629
902.00,76.599
903.00,76.594
904.00,76.579
905.00,76.590
906.00,76.493
907.00,76.539
908.00,76.483
909.00,76.524
910.00,76.458
911.00,76.409
912.00,76.414
913.00,76.417
914.00,76.423
915.00,76.420
916.00,76.379
917.00,76.400
918.00,76.375
919.00,76.369
920.00,76.385
921.00,76.397
922.00,76.386
923.00,76.339
924.00,76.287
925.00,76.300
926.00,76.315
927.00,76.318
928.00,76.355
929.00,76.341
930.00,76.323
931.00,76.264
932.00,76.228
933.00,76.223
934.00,76.202
935.00,76.211
936.00,76.146
937.00,76.083
938.00,76.050
939.00,76.115
940.00,76.159
941.00,76.198
942.00,76.185
943.00,76.185
944.00,76.151
945.00,76.138
946.00,76.128
947.00,76.144
948.00,76.136
949.00,76.105
950.00,76.039
951.00,76.022
952.00,76.049
953.00,76.098
954.00,76.113
955.00,76.104
956.00,76.087
957.00,76.114
958.00,76.106
959.00,76.103
960.00,76.045
961.00,76.033
962.00,76.003
963.00,75.991
964.00,75.949
965.00,75.927
966.00,75.951
967.00,75.923
968.00,75.912
969.00,75.879
970.00,75.925
971.00,75.955
972.00,75.937
973.00,75.960
974.00,75.897
975.00,75.878
976.00,75.783
977.00,75.778
978.00,75.770
979.00,75.793
980.00,75.820
981.00,75.834
982.00,75.813
983.00,75.775
984.00,75.762
985.00,75.748
986.00,75.750
987.00,75.698
988.00,75.681
989.00,75.706
990.00,75.737
991.00,75.768
992.00,75.747
993.00,75.746
994.00,75.675
995.00,75.655
996.00,75.607
997.00,75.640
998.00,75.606
999.00,75.617
1000.00,75.632
1001.00,75.619
1002.00,75.594
1003.00,75.539
1004.00,75.521
1005.00,75.506
1006.00,75.490
1007.00,75.471
1008.00,75.452
1009.00,75.435
1010.00,75.426
1011.00,75.411
1012.00,75.402
1013.00,75.373
1014.00,75.344
1015.00,75.301
1016.00,75.267
1017.00,75.275
1018.00,75.307
1019.00,75.336
1020.00,75.329
1021.00,75.330
1022.00,75.336
1023.00,75.342
1024.00,75.304
1025.00,75.277
1026.00,75.265
1027.00,75.295
1028.00,75.320
1029.00,75.338
1030.00,75.325
1031.00,75.309
1032.00,75.285
1033.00,75.263
1034.00,75.203
1035.00,75.131
1036.00,75.104
1037.00,75.110
1038.00,75.134
1039.00,75.149
1040.00,75.161
1041.00,75.136
1042.00,75.125
1043.00,75.121
1044.00,75.150
1045.00,75.173
1046.00,75.199
1047.00,75.180
1048.00,75.152
1049.00,75.144
1050.00,75.183
1051.00,75.202
1052.00,75.198
1053.00,75.151
1054.00,75.145
1055.00,75.136
1056.00,75.127
1057.00,75.107
1058.00,75.056
1059.00,75.052
1060.00,75.006
1061.00,75.012
1062.00,75.007
1063.00,75.010
1064.00,75.038
1065.00,75.013
1066.00,75.007
1067.00,74.983
1068.00,74.986
1069.00,74.977
1070.00,74.955
1071.00,75.003
1072.00,75.066
1073.00,75.121
1074.00,75.115
1075.00,75.095
1076.00,75.081
1077.00,75.038
1078.00,75.004
1079.00,74.959
1080.00,74.970
1081.00,75.005
1082.00,74.995
1083.00,74.977
1084.00,74.922
1085.00,74.893
1086.00,74.877
1087.00,74.848
1088.00,74.865
1089.00,74.877
1090.00,74.922
1091.00,74.991
1092.00,75.016
1093.00,75.061
1094.00,75.047
1095.00,75.072
1096.00,75.062
1097.00,75.049
1098.00,75.046
1099.00,74.995
1100.00,74.951
1101.00,74.897
1102.00,74.872
1103.00,74.882
1104.00,74.914
1105.00,74.967
1106.00,74.963
1107.00,74.940
1108.00,74.931
1109.00,74.945
1110.00,74.972
1111.00,74.986
1112.00,75.003
1113.00,75.028
1114.00,74.994
1115.00,74.996
1116.00,74.947
1117.00,74.943
1118.00,74.922
1119.00,74.909
1120.00,74.958
1121.00,74.970
1122.00,74.963
1123.00,74.920
1124.00,74.918
1125.00,74.926
1126.00,74.885
1127.00,74.801
1128.00,74.751
1129.00,74.743
1130.00,74.722
1131.00,74.659
1132.00,74.579
1133.00,74.582
1134.00,74.589
1135.00,74.592
1136.00,74.463
1137.00,74.410
1138.00,74.393
1139.00,74.434
1140.00,74.401
1141.00,74.365
1142.00,74.350
1143.00,74.372
1144.00,74.407
1145.00,74.448
1146.00,74.457
1147.00,74.467
1148.00,74.485
1149.00,74.573
1150.00,74.672
1151.00,74.756
1152.00,74.801
1153.00,74.812
1154.00,74.846
1155.00,74.882
1156.00,74.889
1157.00,74.928
1158.00,74.963
1159.00,75.082
1160.00,75.148
1161.00,75.228
1162.00,75.222
1163.00,75.204
1164.00,75.172
1165.00,75.187
1166.00,75.213
1167.00,75.222
1168.00,75.229
1169.00,75.265
1170.00,75.288
1171.00,75.276
1172.00,75.259
1173.00,75.223
1174.00,75.241
1175.00,75.209
1176.00,75.245
1177.00,75.284
1178.00,75.340
1179.00,75.341
1180.00,75.307
1181.00,75.293
1182.00,75.275
1183.00,75.264
1184.00,75.214
1185.00,75.185
1186.00,75.200
1187.00,75.202
1188.00,75.190
1189.00,75.144
1190.00,75.138
1191.00,75.168
1192.00,75.183
1193.00,75.200
1194.00,75.183
1195.00,75.164
1196.00,75.136
1197.00,75.124
1198.00,75.134
1199.00,75.161
1200.00,75.178
1201.00,75.149
1202.00,75.151
1203.00,75.142
1204.00,75.178
1205.00,75.198
1206.00,75.248
1207.00,75.257
1208.00,75.315
1209.00,75.335
1210.00,75.338
1211.00,75.305
1212.00,75.295
1213.00,75.382
1214.00,75.379
1215.00,75.417
1216.00,75.403
1217.00,75.458
1218.00,75.468
1219.00,75.483
1220.00,75.447
1221.00,75.470
1222.00,75.448
1223.00,75.437
1224.00,75.388
1225.00,75.391
1226.00,75.458
1227.00,75.476
1228.00,75.522
1229.00,75.539
1230.00,75.624
1231.00,75.621
1232.00,75.608
1233.00,75.570
1234.00,75.584
1235.00,75.576
1236.00,75.639
1237.00,75.642
1238.00,75.684
1239.00,75.618
1240.00,75.677
1241.00,75.662
1242.00,75.659
1243.00,75.566
1244.00,75.535
1245.00,75.537
1246.00,75.589
1247.00,75.640
1248.00,75.690
1249.00,75.687
1250.00,75.669
1251.00,75.628
1252.00,75.581
1253.00,75.583
1254.00,75.599
1255.00,75.661
1256.00,75.703
1257.00,75.713
1258.00,75.658
1259.00,75.619
1260.00,75.645
1261.00,75.684
1262.00,75.697
1263.00,75.720
1264.00,75.735
1265.00,75.801
1266.00,75.777
1267.00,75.822
1268.00,75.811
1269.00,75.867
1270.00,75.848
1271.00,75.852
1272.00,75.803
1273.00,75.809
1274.00,75.799
1275.00,75.819
1276.00,75.780
1277.00,75.845
1278.00,75.887
1279.00,75.945
1280.00,75.940
1281.00,75.938
1282.00,75.990
1283.00,75.985
1284.00,76.029
1285.00,76.013
1286.00,76.037
1287.00,76.007
1288.00,75.988
1289.00,75.971
1290.00,76.018
1291.00,76.126
1292.00,76.201
1293.00,76.196
1294.00,76.129
1295.00,76.049
1296.00,76.071
1297.00,76.081
1298.00,76.102
1299.00,76.106
1300.00,76.103
1301.00,76.139
1302.00,76.144
1303.00,76.179
1304.00,76.235
1305.00,76.237
1306.00,76.263
1307.00,76.245
1308.00,76.222
1309.00,76.204
1310.00,76.259
1311.00,76.369
1312.00,76.417
1313.00,76.351
1314.00,76.344
1315.00,76.401
1316.00,76.468
1317.00,76.446
1318.00,76.416
1319.00,76.446
1320.00,76.427
1321.00,76.438
1322.00,76.364
1323.00,76.447
1324.00,76.502
1325.00,76.584
1326.00,76.564
1327.00,76.575
1328.00,76.596
1329.00,76.654
1330.00,76.673
1331.00,76.764
1332.00,76.791
1333.00,76.884
1334.00,76.847
1335.00,76.901
1336.00,76.888
1337.00,76.921
1338.00,76.920
1339.00,76.959
1340.00,76.942
1341.00,76.944
1342.00,76.938
1343.00,77.034
1344.00,77.099
1345.00,77.127
1346.00,77.185
1347.00,77.160
1348.00,77.158
1349.00,77.091
1350.00,77.153
1351.00,77.153
1352.00,77.214
1353.00,77.284
1354.00,77.380
1355.00,77.466
1356.00,77.427
1357.00,77.419
1358.00,77.299
1359.00,77.254
1360.00,77.323
1361.00,77.450
1362.00,77.473
1363.00,77.469
1364.00,77.416
1365.00,77.482
1366.00,77.407
1367.00,77.503
1368.00,77.604
1369.00,77.709
1370.00,77.714
1371.00,77.747
1372.00,77.771
1373.00,77.797
1374.00,77.865
1375.00,77.955
1376.00,78.057
1377.00,78.074
1378.00,78.129
1379.00,78.202
1380.00,78.237
1381.00,78.290
1382.00,78.351
1383.00,78.385
1384.00,78.345
1385.00,78.309
1386.00,78.436
1387.00,78.499
1388.00,78.581
1389.00,78.525
1390.00,78.622
1391.00,78.678
1392.00,78.775
1393.00,78.779
1394.00,78.787
1395.00,78.804
1396.00,78.850
1397.00,78.907
1398.00,78.973
1399.00,79.080
1400.00,79.141
